0.01000 13282456.0
0.02000 12879083.0
0.03000 8390488.0
0.04000 4563811.0
0.05000 2335963.0
0.06000 1417169.0
0.07000 1169590.0
0.08000 1278420.0
0.09000 1401315.0
0.10000 1577612.0
0.11000 1723394.0
0.12000 1870367.0
0.13000 2039750.0
0.14000 2176592.0
0.15000 2331552.0
0.16000 2449560.0
0.17000 2593792.0
0.18000 2751971.0
0.19000 2895845.0
0.20000 3045799.0
0.21000 3152483.0
0.22000 3300529.0
0.23000 3449410.0
0.24000 3571471.0
0.25000 3708193.0
0.26000 3803911.0
0.27000 3942540.0
0.28000 4033728.0
0.29000 4146253.0
0.30000 4264976.0
0.31000 4379170.0
0.32000 4455696.0
0.33000 4533295.0
0.34000 4703871.0
0.35000 4799588.0
0.36000 4862168.0
0.37000 4973143.0
0.38000 5033935.0
0.39000 5132514.0
0.40000 5187227.0
0.41000 5294626.0
0.42000 5376039.0
0.43000 5429918.0
0.44000 5450778.0
0.45000 5336346.0
0.46000 5329909.0
0.47000 5338134.0
0.48000 5316320.0
0.49000 5363523.0
0.50000 5333604.0
0.51000 5390701.0
0.52000 5372344.0
0.53000 5386529.0
0.54000 5371152.0
0.55000 5392847.0
0.56000 5407508.0
0.57000 5388079.0
0.58000 5318704.0
0.59000 5304639.0
0.60000 5230377.0
0.61000 5185200.0
0.62000 5101641.0
0.63000 5021777.0
0.64000 4870631.0
0.65000 4735816.0
0.66000 4507071.0
0.67000 4288578.0
0.68000 4040999.0
0.69000 3771488.0
0.70000 3456204.0
0.71000 3052712.0
0.72000 2645287.0
0.73000 2269926.0
0.74000 1848196.0
0.75000 1484755.0
0.76000 1146466.0
0.77000 859194.0
0.78000 635098.0
0.79000 463688.0
0.80000 349375.0
0.81000 267485.0
0.82000 224215.0
0.83000 184758.0
0.84000 155920.0
0.85000 142426.0
0.86000 132157.0
0.87000 127081.0
0.88000 127360.0
0.89000 128574.0
0.90000 129655.0
0.91000 126735.0
0.92000 120413.0
0.93000 113598.0
0.94000 111509.0
0.95000 113024.0
0.96000 116999.0
0.97000 119516.0
0.98000 116658.0
0.99000 110112.0
1.00000 99124.0
1.01000 89438.0
1.02000 84443.0
1.03000 83678.0
1.04000 85744.0
1.05000 88720.0
1.06000 87361.0
1.07000 80525.0
1.08000 70918.0
1.09000 60445.0
1.10000 51778.0
1.11000 47558.0
1.12000 48488.0
1.13000 50187.0
1.14000 52717.0
1.15000 51274.0
1.16000 46105.0
1.17000 39073.0
1.18000 31238.0
1.19000 25107.0
1.20000 21750.0
1.21000 21633.0
1.22000 23063.0
1.23000 24818.0
1.24000 25448.0
1.25000 23880.0
1.26000 20023.0
1.27000 15624.0
1.28000 11134.0
1.29000 8291.0
1.30000 7175.0
1.31000 7561.0
1.32000 8870.0
1.33000 9832.0
1.34000 10218.0
1.35000 9563.0
1.36000 8005.0
1.37000 5662.0
1.38000 3720.0
1.39000 2460.0
1.40000 1736.0
1.41000 2067.0
1.42000 2664.0
1.43000 3250.0
1.44000 3723.0
1.45000 3695.0
1.46000 3147.0
1.47000 2392.0
1.48000 1517.0
1.49000 986.0
1.50000 765.0
1.51000 888.0
1.52000 1027.0
1.53000 1238.0
1.54000 1377.0
1.55000 1360.0
1.56000 1220.0
1.57000 1160.0
1.58000 963.0
1.59000 1033.0
1.60000 1006.0
1.61000 1130.0
1.62000 1098.0
1.63000 1121.0
1.64000 959.0
1.65000 918.0
1.66000 765.0
1.67000 690.0
1.68000 761.0
1.69000 899.0
1.70000 1151.0
1.71000 1371.0
1.72000 1371.0
1.73000 1303.0
1.74000 1128.0
1.75000 907.0
1.76000 713.0
1.77000 613.0
1.78000 637.0
1.79000 741.0
1.80000 935.0
1.81000 1174.0
1.82000 1340.0
1.83000 1492.0
1.84000 1358.0
1.85000 1152.0
1.86000 902.0
1.87000 692.0
1.88000 531.0
1.89000 550.0
1.90000 672.0
1.91000 909.0
1.92000 1091.0
1.93000 1171.0
1.94000 1357.0
1.95000 1214.0
1.96000 1044.0
1.97000 892.0
1.98000 644.0
1.99000 568.0
2.00000 548.0
2.01000 588.0
2.02000 790.0
2.03000 900.0
2.04000 1057.0
2.05000 1079.0
2.06000 1066.0
2.07000 922.0
2.08000 753.0
2.09000 698.0
2.10000 567.0
2.11000 515.0
2.12000 582.0
2.13000 654.0
2.14000 750.0
2.15000 839.0
2.16000 948.0
2.17000 880.0
2.18000 854.0
2.19000 725.0
2.20000 612.0
2.21000 579.0
2.22000 537.0
2.23000 581.0
2.24000 642.0
2.25000 671.0
2.26000 740.0
2.27000 713.0
2.28000 782.0
2.29000 710.0
2.30000 641.0
2.31000 663.0
2.32000 613.0
2.33000 623.0
2.34000 601.0
2.35000 583.0
2.36000 646.0
2.37000 638.0
2.38000 664.0
2.39000 596.0
2.40000 639.0
2.41000 575.0
2.42000 594.0
2.43000 561.0
2.44000 584.0
2.45000 606.0
2.46000 601.0
2.47000 565.0
2.48000 564.0
2.49000 563.0
2.50000 542.0
2.51000 552.0
2.52000 552.0
2.53000 561.0
2.54000 561.0
2.55000 552.0
2.56000 550.0
2.57000 591.0
2.58000 550.0
2.59000 542.0
2.60000 513.0
2.61000 518.0
2.62000 537.0
2.63000 547.0
2.64000 524.0
2.65000 515.0
2.66000 555.0
2.67000 533.0
2.68000 565.0
2.69000 507.0
2.70000 517.0
2.71000 487.0
2.72000 488.0
2.73000 477.0
2.74000 473.0
2.75000 474.0
2.76000 490.0
2.77000 485.0
2.78000 496.0
2.79000 519.0
2.80000 517.0
2.81000 477.0
2.82000 471.0
2.83000 458.0
2.84000 447.0
2.85000 454.0
2.86000 426.0
2.87000 420.0
2.88000 453.0
2.89000 432.0
2.90000 504.0
2.91000 431.0
2.92000 464.0
2.93000 467.0
2.94000 419.0
2.95000 391.0
2.96000 419.0
2.97000 396.0
2.98000 398.0
2.99000 409.0
3.00000 448.0
3.01000 404.0
3.02000 425.0
3.03000 474.0
3.04000 415.0
3.05000 430.0
3.06000 372.0
3.07000 349.0
3.08000 331.0
3.09000 373.0
3.10000 372.0
3.11000 365.0
3.12000 338.0
3.13000 374.0
3.14000 350.0
3.15000 354.0
3.16000 384.0
3.17000 319.0
3.18000 325.0
3.19000 304.0
3.20000 328.0
3.21000 323.0
3.22000 305.0
3.23000 302.0
3.24000 333.0
3.25000 307.0
3.26000 338.0
3.27000 317.0
3.28000 312.0
3.29000 330.0
3.30000 325.0
3.31000 342.0
3.32000 332.0
3.33000 314.0
3.34000 296.0
3.35000 318.0
3.36000 295.0
3.37000 305.0
3.38000 325.0
3.39000 291.0
3.40000 271.0
3.41000 275.0
3.42000 297.0
3.43000 294.0
3.44000 279.0
3.45000 269.0
3.46000 285.0
3.47000 285.0
3.48000 276.0
3.49000 237.0
3.50000 248.0
3.51000 262.0
3.52000 281.0
3.53000 242.0
3.54000 261.0
3.55000 249.0
3.56000 262.0
3.57000 237.0
3.58000 278.0
3.59000 219.0
3.60000 233.0
3.61000 215.0
3.62000 215.0
3.63000 233.0
3.64000 231.0
3.65000 217.0
3.66000 244.0
3.67000 214.0
3.68000 186.0
3.69000 216.0
3.70000 196.0
3.71000 205.0
3.72000 204.0
3.73000 193.0
3.74000 180.0
3.75000 201.0
3.76000 184.0
3.77000 211.0
3.78000 172.0
3.79000 200.0
3.80000 176.0
3.81000 167.0
3.82000 193.0
3.83000 181.0
3.84000 191.0
3.85000 192.0
3.86000 165.0
3.87000 186.0
3.88000 148.0
3.89000 164.0
3.90000 157.0
3.91000 184.0
3.92000 169.0
3.93000 157.0
3.94000 163.0
3.95000 138.0
3.96000 175.0
3.97000 152.0
3.98000 132.0
3.99000 139.0
4.00000 144.0
4.01000 130.0
4.02000 148.0
4.03000 125.0
4.04000 136.0
4.05000 124.0
4.06000 143.0
4.07000 129.0
4.08000 125.0
4.09000 120.0
4.10000 102.0
4.11000 125.0
4.12000 129.0
4.13000 103.0
4.14000 105.0
4.15000 129.0
4.16000 122.0
4.17000 106.0
4.18000 125.0
4.19000 100.0
4.20000 111.0
4.21000 99.0
4.22000 121.0
4.23000 97.0
4.24000 89.0
4.25000 111.0
4.26000 106.0
4.27000 90.0
4.28000 117.0
4.29000 89.0
4.30000 108.0
4.31000 105.0
4.32000 91.0
4.33000 87.0
4.34000 78.0
4.35000 90.0
4.36000 79.0
4.37000 104.0
4.38000 82.0
4.39000 90.0
4.40000 79.0
4.41000 93.0
4.42000 73.0
4.43000 82.0
4.44000 80.0
4.45000 86.0
4.46000 73.0
4.47000 73.0
4.48000 64.0
4.49000 64.0
4.50000 79.0
4.51000 64.0
4.52000 64.0
4.53000 66.0
4.54000 65.0
4.55000 73.0
4.56000 85.0
4.57000 81.0
4.58000 51.0
4.59000 70.0
4.60000 51.0
4.61000 64.0
4.62000 61.0
4.63000 50.0
4.64000 67.0
4.65000 47.0
4.66000 53.0
4.67000 53.0
4.68000 61.0
4.69000 68.0
4.70000 54.0
4.71000 66.0
4.72000 56.0
4.73000 51.0
4.74000 55.0
4.75000 67.0
4.76000 44.0
4.77000 61.0
4.78000 44.0
4.79000 50.0
4.80000 48.0
4.81000 48.0
4.82000 51.0
4.83000 48.0
4.84000 52.0
4.85000 44.0
4.86000 40.0
4.87000 48.0
4.88000 44.0
4.89000 36.0
4.90000 45.0
4.91000 44.0
4.92000 34.0
4.93000 37.0
4.94000 35.0
4.95000 43.0
4.96000 37.0
4.97000 34.0
4.98000 39.0
4.99000 38.0
