0.02000 13148237.0
0.03000 8202152.0
0.04000 4493721.0
0.05000 2148819.0
0.06000 1149446.0
0.07000 873140.0
0.08000 899126.0
0.09000 981016.0
0.10000 1060999.0
0.11000 1182583.0
0.12000 1296181.0
0.13000 1403342.0
0.14000 1514674.0
0.15000 1645794.0
0.16000 1734837.0
0.17000 1861427.0
0.18000 1997911.0
0.19000 2132011.0
0.20000 2252999.0
0.21000 2414396.0
0.22000 2571502.0
0.23000 2722647.0
0.24000 2791068.0
0.25000 2977735.0
0.26000 3118987.0
0.27000 3203858.0
0.28000 3334382.0
0.29000 3431172.0
0.30000 3580530.0
0.31000 3717133.0
0.32000 3830611.0
0.33000 3960420.0
0.34000 4047913.0
0.35000 4184159.0
0.36000 4277969.0
0.37000 4413142.0
0.38000 4558804.0
0.39000 4655356.0
0.40000 4781231.0
0.41000 4891968.0
0.42000 5039538.0
0.43000 5112727.0
0.44000 5147175.0
0.45000 5359828.0
0.46000 5468539.0
0.47000 5601327.0
0.48000 5661047.0
0.49000 5791928.0
0.50000 5807663.0
0.51000 5912320.0
0.52000 5966079.0
0.53000 6052619.0
0.54000 6076459.0
0.55000 5951179.0
0.56000 5799676.0
0.57000 5719455.0
0.58000 5693231.0
0.59000 5617658.0
0.60000 5677139.0
0.61000 5515027.0
0.62000 5533741.0
0.63000 5409892.0
0.64000 5320015.0
0.65000 5170300.0
0.66000 5076609.0
0.67000 4955502.0
0.68000 4675620.0
0.69000 4350800.0
0.70000 4075687.0
0.71000 3678155.0
0.72000 3251895.0
0.73000 2814312.0
0.74000 2321301.0
0.75000 1877996.0
0.76000 1464134.0
0.77000 1095448.0
0.78000 824030.0
0.79000 620674.0
0.80000 469886.0
0.81000 374288.0
0.82000 319933.0
0.83000 280835.0
0.84000 260214.0
0.85000 250678.0
0.86000 253181.0
0.87000 267723.0
0.88000 281193.0
0.89000 290014.0
0.90000 304079.0
0.91000 314330.0
0.92000 317668.0
0.93000 311946.0
0.94000 336382.0
0.95000 343892.0
0.96000 369043.0
0.97000 357362.0
0.98000 363798.0
0.99000 340912.0
1.00000 339124.0
1.01000 323866.0
1.02000 351521.0
1.03000 359150.0
1.04000 360580.0
1.05000 363918.0
1.06000 351998.0
1.07000 322674.0
1.08000 305748.0
1.09000 282266.0
1.10000 279882.0
1.11000 274994.0
1.12000 284173.0
1.13000 278213.0
1.14000 272610.0
1.15000 264624.0
1.16000 229698.0
1.17000 213368.0
1.18000 187218.0
1.19000 186544.0
1.20000 185809.0
1.21000 189606.0
1.22000 186909.0
1.23000 178486.0
1.24000 162891.0
1.25000 142635.0
1.26000 123073.0
1.27000 107785.0
1.28000 100051.0
1.29000 98168.0
1.30000 99186.0
1.31000 99128.0
1.32000 95192.0
1.33000 86044.0
1.34000 73393.0
1.35000 59844.0
1.36000 48291.0
1.37000 40131.0
1.38000 36018.0
1.39000 35407.0
1.40000 36945.0
1.41000 37015.0
1.42000 35075.0
1.43000 30563.0
1.44000 24355.0
1.45000 17648.0
1.46000 12363.0
1.47000 8945.0
1.48000 7419.0
1.49000 7803.0
1.50000 8367.0
1.51000 8595.0
1.52000 7862.0
1.53000 6613.0
1.54000 4853.0
1.55000 3404.0
1.56000 2790.0
1.57000 2832.0
1.58000 3207.0
1.59000 3610.0
1.60000 3752.0
1.61000 3217.0
1.62000 2501.0
1.63000 1997.0
1.64000 2352.0
1.65000 3619.0
1.66000 5740.0
1.67000 8114.0
1.68000 10088.0
1.69000 11065.0
1.70000 10542.0
1.71000 9183.0
1.72000 7409.0
1.73000 6251.0
1.74000 6433.0
1.75000 8053.0
1.76000 10919.0
1.77000 14552.0
1.78000 17309.0
1.79000 18975.0
1.80000 18948.0
1.81000 17066.0
1.82000 14343.0
1.83000 11869.0
1.84000 10259.0
1.85000 10370.0
1.86000 12363.0
1.87000 14976.0
1.88000 18040.0
1.89000 21188.0
1.90000 21998.0
1.91000 20893.0
1.92000 18849.0
1.93000 15573.0
1.94000 12476.0
1.95000 10670.0
1.96000 10653.0
1.97000 11720.0
1.98000 14234.0
1.99000 16732.0
2.00000 18799.0
2.01000 19008.0
2.02000 17785.0
2.03000 15495.0
2.04000 12545.0
2.05000 9728.0
2.06000 8120.0
2.07000 7512.0
2.08000 8268.0
2.09000 9944.0
2.10000 11628.0
2.11000 12704.0
2.12000 13061.0
2.13000 12162.0
2.14000 10097.0
2.15000 7776.0
2.16000 5547.0
2.17000 4255.0
2.18000 3781.0
2.19000 4133.0
2.20000 5137.0
2.21000 6341.0
2.22000 7089.0
2.23000 7061.0
2.24000 6434.0
2.25000 5070.0
2.26000 3741.0
2.27000 2446.0
2.28000 1513.0
2.29000 1157.0
2.30000 1386.0
2.31000 1965.0
2.32000 2481.0
2.33000 2865.0
2.34000 2917.0
2.35000 2666.0
2.36000 2100.0
2.37000 1480.0
2.38000 941.0
2.39000 627.0
2.40000 580.0
2.41000 661.0
2.42000 785.0
2.43000 917.0
2.44000 933.0
2.45000 871.0
2.46000 796.0
2.47000 679.0
2.48000 676.0
2.49000 784.0
2.50000 991.0
2.51000 1054.0
2.52000 1201.0
2.53000 1168.0
2.54000 1125.0
2.55000 810.0
2.56000 572.0
2.57000 411.0
2.58000 428.0
2.59000 640.0
2.60000 1022.0
2.61000 1447.0
2.62000 1786.0
2.63000 2130.0
2.64000 2168.0
2.65000 1868.0
2.66000 1352.0
2.67000 845.0
2.68000 585.0
2.69000 536.0
2.70000 786.0
2.71000 1221.0
2.72000 1796.0
2.73000 2412.0
2.74000 2777.0
2.75000 2729.0
2.76000 2421.0
2.77000 1850.0
2.78000 1203.0
2.79000 774.0
2.80000 591.0
2.81000 740.0
2.82000 1110.0
2.83000 1540.0
2.84000 2132.0
2.85000 2439.0
2.86000 2488.0
2.87000 2368.0
2.88000 1866.0
2.89000 1351.0
2.90000 799.0
2.91000 599.0
2.92000 556.0
2.93000 676.0
2.94000 1039.0
2.95000 1375.0
2.96000 1741.0
2.97000 2000.0
2.98000 1885.0
2.99000 1564.0
3.00000 1136.0
3.01000 803.0
3.02000 497.0
3.03000 367.0
3.04000 396.0
3.05000 586.0
3.06000 803.0
3.07000 1035.0
3.08000 1126.0
3.09000 1241.0
3.10000 1060.0
3.11000 894.0
3.12000 600.0
3.13000 404.0
3.14000 295.0
3.15000 248.0
3.16000 269.0
3.17000 430.0
3.18000 499.0
3.19000 591.0
3.20000 607.0
3.21000 621.0
3.22000 568.0
3.23000 448.0
3.24000 384.0
3.25000 282.0
3.26000 261.0
3.27000 253.0
3.28000 277.0
3.29000 286.0
3.30000 306.0
3.31000 318.0
3.32000 341.0
3.33000 321.0
3.34000 338.0
3.35000 371.0
3.36000 400.0
3.37000 399.0
3.38000 413.0
3.39000 402.0
3.40000 351.0
3.41000 258.0
3.42000 218.0
3.43000 179.0
3.44000 202.0
3.45000 239.0
3.46000 338.0
3.47000 400.0
3.48000 456.0
3.49000 496.0
3.50000 493.0
3.51000 466.0
3.52000 357.0
3.53000 257.0
3.54000 183.0
3.55000 140.0
3.56000 153.0
3.57000 229.0
3.58000 362.0
3.59000 479.0
3.60000 558.0
3.61000 562.0
3.62000 518.0
3.63000 449.0
3.64000 320.0
3.65000 236.0
3.66000 164.0
3.67000 141.0
3.68000 173.0
3.69000 291.0
3.70000 394.0
3.71000 492.0
3.72000 532.0
3.73000 534.0
3.74000 482.0
3.75000 348.0
3.76000 270.0
3.77000 187.0
3.78000 131.0
3.79000 124.0
3.80000 194.0
3.81000 276.0
3.82000 355.0
3.83000 414.0
3.84000 465.0
3.85000 444.0
3.86000 376.0
3.87000 293.0
3.88000 203.0
3.89000 143.0
3.90000 128.0
3.91000 133.0
3.92000 129.0
3.93000 197.0
3.94000 260.0
3.95000 294.0
3.96000 304.0
3.97000 322.0
3.98000 235.0
3.99000 220.0
4.00000 200.0
4.01000 138.0
4.02000 101.0
4.03000 134.0
4.04000 125.0
4.05000 176.0
4.06000 180.0
4.07000 225.0
4.08000 206.0
4.09000 207.0
4.10000 196.0
4.11000 178.0
4.12000 147.0
4.13000 140.0
4.14000 154.0
4.15000 149.0
4.16000 116.0
4.17000 129.0
4.18000 117.0
4.19000 141.0
4.20000 142.0
4.21000 153.0
4.22000 143.0
4.23000 156.0
4.24000 165.0
4.25000 153.0
4.26000 143.0
4.27000 151.0
4.28000 126.0
4.29000 106.0
4.30000 107.0
4.31000 96.0
4.32000 118.0
4.33000 106.0
4.34000 159.0
4.35000 200.0
4.36000 160.0
4.37000 175.0
4.38000 129.0
4.39000 161.0
4.40000 128.0
4.41000 92.0
4.42000 83.0
4.43000 93.0
4.44000 111.0
4.45000 111.0
4.46000 150.0
4.47000 184.0
4.48000 205.0
4.49000 206.0
4.50000 207.0
4.51000 123.0
4.52000 98.0
4.53000 75.0
4.54000 66.0
4.55000 75.0
4.56000 82.0
4.57000 104.0
4.58000 147.0
4.59000 166.0
4.60000 189.0
4.61000 181.0
4.62000 154.0
4.63000 108.0
4.64000 100.0
4.65000 67.0
4.66000 71.0
4.67000 65.0
4.68000 82.0
4.69000 98.0
4.70000 124.0
4.71000 131.0
4.72000 138.0
4.73000 144.0
4.74000 120.0
4.75000 117.0
4.76000 78.0
4.77000 66.0
4.78000 65.0
4.79000 63.0
4.80000 67.0
4.81000 111.0
4.82000 88.0
4.83000 114.0
4.84000 107.0
4.85000 107.0
4.86000 89.0
4.87000 97.0
4.88000 78.0
4.89000 72.0
4.90000 72.0
4.91000 67.0
4.92000 48.0
4.93000 68.0
4.94000 73.0
4.95000 93.0
4.96000 86.0
4.97000 65.0
4.98000 97.0
