Voltage (V)	Current (A)	Resistance (Ohm)	Power (W)	Time(s)
1.007347E-1	2.012609E-6	5.005180E+4	2.027396E-7	0.000000E+0
2.000523E-1	2.128190E-6	9.400115E+4	4.257493E-7	2.000000E-1
4.018461E-1	2.256364E-6	1.780945E+5	9.067111E-7	3.000000E-1
6.003039E-1	2.365161E-6	2.538110E+5	1.419815E-6	3.000000E-1
8.018950E-1	2.464538E-6	3.253734E+5	1.976301E-6	4.000000E-1
1.000234E+0	2.554654E-6	3.915340E+5	2.555252E-6	5.000000E-1
1.201994E+0	2.640565E-6	4.552033E+5	3.173943E-6	6.000000E-1
1.400418E+0	2.720537E-6	5.147579E+5	3.809889E-6	8.000000E-1
1.602077E+0	2.797907E-6	5.725984E+5	4.482462E-6	8.000000E-1
1.800249E+0	2.870913E-6	6.270650E+5	5.168358E-6	9.000000E-1
2.002007E+0	2.942701E-6	6.803297E+5	5.891308E-6	1.000000E+0
2.200432E+0	3.011014E-6	7.307943E+5	6.625532E-6	1.100000E+0
2.402208E+0	3.078486E-6	7.803212E+5	7.395164E-6	1.200000E+0
2.600405E+0	3.143201E-6	8.273111E+5	8.173596E-6	1.300000E+0
2.801827E+0	3.207891E-6	8.734171E+5	8.987956E-6	1.400000E+0
3.000074E+0	3.270390E-6	9.173444E+5	9.811412E-6	1.500000E+0
3.201901E+0	3.332477E-6	9.608171E+5	1.067026E-5	1.600000E+0
3.400138E+0	3.392629E-6	1.002213E+6	1.153541E-5	1.700000E+0
3.602019E+0	3.452974E-6	1.043164E+6	1.243768E-5	1.800000E+0
3.800341E+0	3.511258E-6	1.082330E+6	1.334398E-5	1.900000E+0
4.002177E+0	3.570134E-6	1.121016E+6	1.428831E-5	2.000000E+0
4.200423E+0	3.627233E-6	1.158024E+6	1.523591E-5	2.100000E+0
4.402098E+0	3.684862E-6	1.194644E+6	1.622112E-5	2.200000E+0
4.600523E+0	3.740717E-6	1.229851E+6	1.720925E-5	2.300000E+0
4.802130E+0	3.797009E-6	1.264714E+6	1.823373E-5	2.400000E+0
5.000514E+0	3.852076E-6	1.298135E+6	1.926236E-5	2.500000E+0
5.202399E+0	3.907719E-6	1.331313E+6	2.032951E-5	2.600000E+0
5.400511E+0	3.961607E-6	1.363212E+6	2.139470E-5	2.700000E+0
5.602154E+0	4.016183E-6	1.394895E+6	2.249928E-5	2.800000E+0
5.800604E+0	4.069170E-6	1.425501E+6	2.360364E-5	2.900000E+0
6.002065E+0	4.122975E-6	1.455761E+6	2.474636E-5	3.000000E+0
6.199922E+0	4.176177E-6	1.484593E+6	2.589197E-5	3.100000E+0
6.401641E+0	4.230179E-6	1.513326E+6	2.708009E-5	3.200000E+0
6.600066E+0	4.282330E-6	1.541232E+6	2.826366E-5	3.300000E+0
6.801642E+0	4.335486E-6	1.568830E+6	2.948842E-5	3.400000E+0
7.000276E+0	4.387870E-6	1.595370E+6	3.071630E-5	3.500000E+0
7.201809E+0	4.440838E-6	1.621723E+6	3.198207E-5	3.600000E+0
7.400259E+0	4.492737E-6	1.647161E+6	3.324742E-5	3.700000E+0
7.601873E+0	4.545383E-6	1.672438E+6	3.455342E-5	3.800000E+0
7.800237E+0	4.596856E-6	1.696863E+6	3.585657E-5	3.900000E+0
8.001851E+0	4.649117E-6	1.721155E+6	3.720154E-5	4.000000E+0
8.200382E+0	4.700712E-6	1.744498E+6	3.854763E-5	4.100000E+0
8.401964E+0	4.752954E-6	1.767735E+6	3.993415E-5	4.200000E+0
8.600487E+0	4.804268E-6	1.790176E+6	4.131904E-5	4.300000E+0
8.802128E+0	4.856409E-6	1.812477E+6	4.274673E-5	4.400000E+0
9.000190E+0	4.907512E-6	1.833962E+6	4.416854E-5	4.500000E+0
9.201960E+0	4.959712E-6	1.855342E+6	4.563907E-5	4.600000E+0
9.400183E+0	5.010954E-6	1.875927E+6	4.710388E-5	4.700000E+0
9.601649E+0	5.062869E-6	1.896484E+6	4.861189E-5	4.800000E+0
9.799960E+0	5.113826E-6	1.916366E+6	5.011529E-5	4.900000E+0
1.000171E+1	5.166050E-6	1.936046E+6	5.166933E-5	5.000000E+0
1.020007E+1	5.217436E-6	1.954997E+6	5.321821E-5	5.100000E+0
1.040196E+1	5.269574E-6	1.973966E+6	5.481390E-5	5.200000E+0
1.060030E+1	5.321075E-6	1.992135E+6	5.640499E-5	5.300000E+0
1.080198E+1	5.372958E-6	2.010434E+6	5.803858E-5	5.400000E+0
1.100022E+1	5.424043E-6	2.028048E+6	5.966567E-5	5.500000E+0
1.120200E+1	5.476290E-6	2.045545E+6	6.134540E-5	5.600000E+0
1.140032E+1	5.528203E-6	2.062211E+6	6.302328E-5	5.700000E+0
1.160204E+1	5.580663E-6	2.078972E+6	6.474708E-5	5.800000E+0
1.180032E+1	5.632380E-6	2.095086E+6	6.646389E-5	5.900000E+0
1.200216E+1	5.684182E-6	2.111502E+6	6.822246E-5	6.000000E+0
1.220051E+1	5.736584E-6	2.126790E+6	6.998925E-5	6.100000E+0
1.240225E+1	5.789678E-6	2.142131E+6	7.180503E-5	6.200000E+0
1.260043E+1	5.841253E-6	2.157145E+6	7.360230E-5	6.300000E+0
1.280187E+1	5.894179E-6	2.171951E+6	7.545651E-5	6.400000E+0
1.300034E+1	5.946659E-6	2.186159E+6	7.730859E-5	6.500000E+0
1.320209E+1	5.999918E-6	2.200378E+6	7.921146E-5	6.600000E+0
1.340075E+1	6.052669E-6	2.214023E+6	8.111030E-5	6.700000E+0
1.360218E+1	6.106585E-6	2.227461E+6	8.306287E-5	6.800000E+0
1.380089E+1	6.160924E-6	2.240068E+6	8.502623E-5	6.900000E+0
1.400256E+1	6.213783E-6	2.253468E+6	8.700887E-5	7.000000E+0
1.420099E+1	6.266693E-6	2.266106E+6	8.899324E-5	7.100000E+0
1.440253E+1	6.320231E-6	2.278798E+6	9.102732E-5	7.200000E+0
1.460104E+1	6.373388E-6	2.290939E+6	9.305809E-5	7.300000E+0
1.480278E+1	6.427626E-6	2.302993E+6	9.514673E-5	7.400000E+0
1.500127E+1	6.481908E-6	2.314329E+6	9.723685E-5	7.500000E+0
1.520282E+1	6.537022E-6	2.325649E+6	9.938117E-5	7.600000E+0
1.540142E+1	6.591249E-6	2.336647E+6	1.015146E-4	7.700000E+0
1.560314E+1	6.646500E-6	2.347572E+6	1.037063E-4	7.800000E+0
1.580154E+1	6.701485E-6	2.357916E+6	1.058938E-4	7.900000E+0
1.600318E+1	6.757385E-6	2.368250E+6	1.081396E-4	8.000000E+0
1.620112E+1	6.812454E-6	2.378162E+6	1.103694E-4	8.100000E+0
1.640279E+1	6.868733E-6	2.388037E+6	1.126664E-4	8.200000E+0
1.660112E+1	6.924377E-6	2.397489E+6	1.149524E-4	8.300000E+0
1.680296E+1	6.981301E-6	2.406852E+6	1.173065E-4	8.400000E+0
1.700125E+1	7.037489E-6	2.415812E+6	1.196461E-4	8.500000E+0
1.720315E+1	7.095000E-6	2.424686E+6	1.220563E-4	8.600000E+0
1.740151E+1	7.151161E-6	2.433382E+6	1.244410E-4	8.700000E+0
1.760337E+1	7.209405E-6	2.441723E+6	1.269098E-4	8.800000E+0
1.780162E+1	7.267566E-6	2.449461E+6	1.293744E-4	8.900000E+0
1.800342E+1	7.325557E-6	2.457618E+6	1.318851E-4	9.000000E+0
1.820168E+1	7.383213E-6	2.465279E+6	1.343869E-4	9.100000E+0
1.840349E+1	7.442461E-6	2.472769E+6	1.369673E-4	9.200000E+0
1.860178E+1	7.501033E-6	2.479896E+6	1.395326E-4	9.300000E+0
1.880370E+1	7.561050E-6	2.486916E+6	1.421757E-4	9.400000E+0
1.900207E+1	7.620312E-6	2.493608E+6	1.448017E-4	9.500000E+0
1.920376E+1	7.680991E-6	2.500167E+6	1.475039E-4	9.600000E+0
1.940208E+1	7.741526E-6	2.506235E+6	1.502017E-4	9.700000E+0
1.960316E+1	7.802662E-6	2.512368E+6	1.529568E-4	9.800000E+0
1.980154E+1	7.863156E-6	2.518269E+6	1.557026E-4	9.900000E+0
2.000297E+1	7.924727E-6	2.524121E+6	1.585181E-4	1.000000E+1
2.020155E+1	7.986783E-6	2.529373E+6	1.613454E-4	1.010000E+1
2.040303E+1	8.049476E-6	2.534703E+6	1.642337E-4	1.020000E+1
2.060170E+1	8.112225E-6	2.539587E+6	1.671256E-4	1.030000E+1
2.080343E+1	8.175671E-6	2.544553E+6	1.700820E-4	1.040000E+1
2.100190E+1	8.238960E-6	2.549096E+6	1.730338E-4	1.050000E+1
2.120347E+1	8.303937E-6	2.553424E+6	1.760723E-4	1.060000E+1
2.140199E+1	8.368365E-6	2.557488E+6	1.790997E-4	1.070000E+1
2.160357E+1	8.433902E-6	2.561515E+6	1.822024E-4	1.080000E+1
2.180209E+1	8.499122E-6	2.565217E+6	1.852986E-4	1.090000E+1
2.200357E+1	8.565845E-6	2.568756E+6	1.884792E-4	1.100000E+1
2.220214E+1	8.632006E-6	2.572072E+6	1.916490E-4	1.110000E+1
2.240384E+1	8.699898E-6	2.575184E+6	1.949111E-4	1.120000E+1
2.260233E+1	8.767076E-6	2.578092E+6	1.981563E-4	1.130000E+1
2.280395E+1	8.835921E-6	2.580823E+6	2.014939E-4	1.140000E+1
2.300200E+1	8.904127E-6	2.583296E+6	2.048127E-4	1.150000E+1
2.320366E+1	8.972876E-6	2.585978E+6	2.082036E-4	1.160000E+1
2.340209E+1	9.043410E-6	2.587751E+6	2.116347E-4	1.170000E+1
2.360366E+1	9.118068E-6	2.588669E+6	2.152198E-4	1.180000E+1
2.380193E+1	9.185643E-6	2.591210E+6	2.186360E-4	1.190000E+1
2.400390E+1	9.257429E-6	2.592934E+6	2.222144E-4	1.200000E+1
2.420221E+1	9.329694E-6	2.594105E+6	2.257992E-4	1.210000E+1
2.440396E+1	9.404594E-6	2.594898E+6	2.295093E-4	1.220000E+1
2.460228E+1	9.477352E-6	2.595902E+6	2.331645E-4	1.230000E+1
2.480405E+1	9.552740E-6	2.596538E+6	2.369466E-4	1.240000E+1
2.500246E+1	9.627421E-6	2.597005E+6	2.407092E-4	1.250000E+1
2.520420E+1	9.703875E-6	2.597334E+6	2.445784E-4	1.260000E+1
2.540247E+1	9.780123E-6	2.597357E+6	2.484393E-4	1.270000E+1
2.560434E+1	9.858031E-6	2.597308E+6	2.524084E-4	1.280000E+1
2.580271E+1	9.935568E-6	2.597004E+6	2.563646E-4	1.290000E+1
2.600445E+1	1.001537E-5	2.596454E+6	2.604442E-4	1.300000E+1
2.620275E+1	1.009438E-5	2.595776E+6	2.645005E-4	1.310000E+1
2.640443E+1	1.017566E-5	2.594862E+6	2.686825E-4	1.320000E+1
2.660286E+1	1.025624E-5	2.593822E+6	2.728453E-4	1.320000E+1
2.680463E+1	1.033929E-5	2.592502E+6	2.771408E-4	1.330000E+1
2.700306E+1	1.042172E-5	2.591037E+6	2.814183E-4	1.350000E+1
2.718097E+1	1.049645E-5	2.589539E+6	2.853037E-4	1.360000E+1
2.740129E+1	1.058348E-5	2.589062E+6	2.900010E-4	1.380000E+1
2.760302E+1	1.067004E-5	2.586965E+6	2.945253E-4	1.390000E+1
2.780150E+1	1.075591E-5	2.584765E+6	2.990304E-4	1.400000E+1
2.800300E+1	1.084380E-5	2.582397E+6	3.036589E-4	1.410000E+1
2.820155E+1	1.093162E-5	2.579814E+6	3.082886E-4	1.420000E+1
2.840318E+1	1.102173E-5	2.577016E+6	3.130522E-4	1.430000E+1
2.860161E+1	1.111154E-5	2.574046E+6	3.178079E-4	1.440000E+1
2.879988E+1	1.120229E-5	2.570892E+6	3.226246E-4	1.450000E+1
2.900181E+1	1.129565E-5	2.567520E+6	3.275943E-4	1.460000E+1
2.920016E+1	1.138812E-5	2.564090E+6	3.325349E-4	1.480000E+1
2.940178E+1	1.148303E-5	2.560455E+6	3.376215E-4	1.480000E+1
2.960001E+1	1.157982E-5	2.556172E+6	3.427628E-4	1.490000E+1
2.980144E+1	1.167628E-5	2.552306E+6	3.479700E-4	1.500000E+1
2.999979E+1	1.177332E-5	2.548116E+6	3.531971E-4	1.520000E+1
3.020156E+1	1.187323E-5	2.543668E+6	3.585901E-4	1.530000E+1
3.039989E+1	1.197294E-5	2.539050E+6	3.639761E-4	1.530000E+1
3.060178E+1	1.207469E-5	2.534374E+6	3.695070E-4	1.540000E+1
3.080007E+1	1.217861E-5	2.529030E+6	3.751020E-4	1.550000E+1
3.100157E+1	1.228174E-5	2.524200E+6	3.807532E-4	1.560000E+1
3.119991E+1	1.238634E-5	2.518897E+6	3.864527E-4	1.570000E+1
3.140154E+1	1.249232E-5	2.513668E+6	3.922781E-4	1.580000E+1
3.160002E+1	1.260097E-5	2.507745E+6	3.981909E-4	1.590000E+1
3.180162E+1	1.271109E-5	2.501880E+6	4.042333E-4	1.600000E+1
3.200014E+1	1.282038E-5	2.496037E+6	4.102540E-4	1.610000E+1
3.220164E+1	1.293233E-5	2.490011E+6	4.164422E-4	1.620000E+1
3.240031E+1	1.304719E-5	2.483317E+6	4.227330E-4	1.630000E+1
3.260184E+1	1.316155E-5	2.477052E+6	4.290907E-4	1.640000E+1
3.280026E+1	1.327675E-5	2.470504E+6	4.354809E-4	1.650000E+1
3.300179E+1	1.339428E-5	2.463872E+6	4.420352E-4	1.660000E+1
3.319960E+1	1.351365E-5	2.456746E+6	4.486478E-4	1.670000E+1
3.340125E+1	1.363535E-5	2.449607E+6	4.554377E-4	1.680000E+1
3.359977E+1	1.375696E-5	2.442383E+6	4.622307E-4	1.690000E+1
3.380136E+1	1.388190E-5	2.434923E+6	4.692271E-4	1.700000E+1
3.400003E+1	1.400658E-5	2.427433E+6	4.762241E-4	1.710000E+1
3.420162E+1	1.413640E-5	2.419401E+6	4.834878E-4	1.720000E+1
3.440001E+1	1.426327E-5	2.411790E+6	4.906566E-4	1.730000E+1
3.460146E+1	1.439502E-5	2.403710E+6	4.980887E-4	1.740000E+1
3.479967E+1	1.452632E-5	2.395629E+6	5.055111E-4	1.750000E+1
3.500154E+1	1.466180E-5	2.387261E+6	5.131856E-4	1.760000E+1
3.519973E+1	1.479782E-5	2.378711E+6	5.208793E-4	1.770000E+1
3.540162E+1	1.493670E-5	2.370110E+6	5.287834E-4	1.780000E+1
3.559985E+1	1.507563E-5	2.361417E+6	5.366902E-4	1.790000E+1
3.580174E+1	1.521818E-5	2.352564E+6	5.448373E-4	1.800000E+1
3.600010E+1	1.536147E-5	2.343532E+6	5.530145E-4	1.810000E+1
3.620188E+1	1.550898E-5	2.334253E+6	5.614542E-4	1.820000E+1
3.640007E+1	1.565566E-5	2.325042E+6	5.698671E-4	1.830000E+1
3.660136E+1	1.580672E-5	2.315557E+6	5.785474E-4	1.840000E+1
3.679976E+1	1.595771E-5	2.306080E+6	5.872399E-4	1.850000E+1
3.700156E+1	1.611297E-5	2.296384E+6	5.962050E-4	1.860000E+1
3.719994E+1	1.626946E-5	2.286489E+6	6.052229E-4	1.870000E+1
3.740176E+1	1.642913E-5	2.276551E+6	6.144784E-4	1.880000E+1
3.760006E+1	1.658892E-5	2.266577E+6	6.237444E-4	1.890000E+1
3.780198E+1	1.675447E-5	2.256233E+6	6.333521E-4	1.900000E+1
3.800017E+1	1.691853E-5	2.246068E+6	6.429070E-4	1.910000E+1
3.820159E+1	1.708869E-5	2.235490E+6	6.528151E-4	1.920000E+1
3.840002E+1	1.725787E-5	2.225073E+6	6.627026E-4	1.930000E+1
3.860168E+1	1.743289E-5	2.214302E+6	6.729388E-4	1.940000E+1
3.880006E+1	1.760847E-5	2.203488E+6	6.832097E-4	1.950000E+1
3.900176E+1	1.778755E-5	2.192644E+6	6.937458E-4	1.960000E+1
3.920029E+1	1.796758E-5	2.181723E+6	7.043343E-4	1.970000E+1
3.940193E+1	1.815339E-5	2.170500E+6	7.152786E-4	1.980000E+1
3.960036E+1	1.833831E-5	2.159433E+6	7.262037E-4	1.990000E+1
3.980185E+1	1.852965E-5	2.148009E+6	7.375143E-4	2.000000E+1
4.000029E+1	1.872031E-5	2.136732E+6	7.488178E-4	2.010000E+1
4.020204E+1	1.891766E-5	2.125106E+6	7.605285E-4	2.020000E+1
4.040038E+1	1.911388E-5	2.113667E+6	7.722080E-4	2.030000E+1
4.060204E+1	1.931707E-5	2.101874E+6	7.843124E-4	2.040000E+1
4.080066E+1	1.951983E-5	2.090216E+6	7.964219E-4	2.050000E+1
4.100227E+1	1.972972E-5	2.078198E+6	8.089633E-4	2.060000E+1
4.120070E+1	1.993952E-5	2.066283E+6	8.215222E-4	2.070000E+1
4.140232E+1	2.015515E-5	2.054181E+6	8.344700E-4	2.080000E+1
4.160077E+1	2.037099E-5	2.042157E+6	8.474489E-4	2.090000E+1
4.180235E+1	2.059384E-5	2.029847E+6	8.608709E-4	2.100000E+1
4.200066E+1	2.081632E-5	2.017679E+6	8.742992E-4	2.110000E+1
4.220243E+1	2.104640E-5	2.005209E+6	8.882092E-4	2.120000E+1
4.240064E+1	2.127586E-5	1.992899E+6	9.021101E-4	2.130000E+1
4.260255E+1	2.151313E-5	1.980305E+6	9.165142E-4	2.140000E+1
4.280090E+1	2.175066E-5	1.967798E+6	9.309478E-4	2.150000E+1
4.300269E+1	2.199601E-5	1.955022E+6	9.458876E-4	2.160000E+1
4.320093E+1	2.224110E-5	1.942392E+6	9.608362E-4	2.170000E+1
4.340228E+1	2.249255E-5	1.929629E+6	9.762280E-4	2.180000E+1
4.360065E+1	2.274606E-5	1.916844E+6	9.917430E-4	2.190000E+1
4.380244E+1	2.300706E-5	1.903870E+6	1.007765E-3	2.200000E+1
4.400074E+1	2.326932E-5	1.890934E+6	1.023867E-3	2.210000E+1
4.420251E+1	2.353888E-5	1.877851E+6	1.040478E-3	2.220000E+1
4.440096E+1	2.380948E-5	1.864844E+6	1.057164E-3	2.230000E+1
4.460265E+1	2.408866E-5	1.851604E+6	1.074418E-3	2.240000E+1
4.480089E+1	2.436654E-5	1.838623E+6	1.091643E-3	2.250000E+1
4.500265E+1	2.465532E-5	1.825271E+6	1.109555E-3	2.260000E+1
4.520104E+1	2.494352E-5	1.812136E+6	1.127473E-3	2.270000E+1
4.540276E+1	2.524205E-5	1.798695E+6	1.146059E-3	2.280000E+1
4.560096E+1	2.554063E-5	1.785428E+6	1.164677E-3	2.290000E+1
4.580252E+1	2.584867E-5	1.771949E+6	1.183934E-3	2.300000E+1
4.600119E+1	2.615748E-5	1.758625E+6	1.203275E-3	2.310000E+1
4.620279E+1	2.647664E-5	1.745040E+6	1.223295E-3	2.320000E+1
4.640120E+1	2.679599E-5	1.731647E+6	1.243366E-3	2.330000E+1
4.660276E+1	2.712658E-5	1.717974E+6	1.264173E-3	2.340000E+1
4.680057E+1	2.745631E-5	1.704547E+6	1.284971E-3	2.350000E+1
4.700229E+1	2.779666E-5	1.690933E+6	1.306507E-3	2.360000E+1
4.720071E+1	2.813952E-5	1.677381E+6	1.328205E-3	2.370000E+1
4.740229E+1	2.849274E-5	1.663662E+6	1.350621E-3	2.380000E+1
4.760083E+1	2.884705E-5	1.650111E+6	1.373144E-3	2.390000E+1
4.780260E+1	2.921302E-5	1.636346E+6	1.396458E-3	2.400000E+1
4.800095E+1	2.957933E-5	1.622787E+6	1.419836E-3	2.410000E+1
4.820256E+1	2.996000E-5	1.608897E+6	1.444149E-3	2.420000E+1
4.840102E+1	3.034015E-5	1.595280E+6	1.468494E-3	2.430000E+1
4.860268E+1	3.073247E-5	1.581477E+6	1.493680E-3	2.440000E+1
4.880110E+1	3.112638E-5	1.567837E+6	1.519002E-3	2.450000E+1
4.900270E+1	3.153351E-5	1.553988E+6	1.545227E-3	2.460000E+1
4.920086E+1	3.194093E-5	1.540370E+6	1.571521E-3	2.470000E+1
4.940274E+1	3.236341E-5	1.526500E+6	1.598841E-3	2.480000E+1
4.960108E+1	3.278627E-5	1.512861E+6	1.626234E-3	2.490000E+1
4.980283E+1	3.322614E-5	1.498905E+6	1.654756E-3	2.500000E+1
5.000126E+1	3.366429E-5	1.485291E+6	1.683257E-3	2.510000E+1
5.020252E+1	3.411687E-5	1.471487E+6	1.712753E-3	2.520000E+1
5.040088E+1	3.457096E-5	1.457896E+6	1.742407E-3	2.530000E+1
5.060269E+1	3.504082E-5	1.444107E+6	1.773160E-3	2.540000E+1
5.080095E+1	3.551248E-5	1.430510E+6	1.804068E-3	2.550000E+1
5.100279E+1	3.600560E-5	1.416524E+6	1.836386E-3	2.560000E+1
5.120110E+1	3.649478E-5	1.402971E+6	1.868573E-3	2.570000E+1
5.140292E+1	3.700301E-5	1.389155E+6	1.902063E-3	2.580000E+1
5.160117E+1	3.750937E-5	1.375687E+6	1.935527E-3	2.590000E+1
5.180294E+1	3.803924E-5	1.361829E+6	1.970544E-3	2.600000E+1
5.200129E+1	3.856823E-5	1.348293E+6	2.005598E-3	2.610000E+1
5.220293E+1	3.911634E-5	1.334556E+6	2.041988E-3	2.620000E+1
5.240126E+1	3.966616E-5	1.321057E+6	2.078557E-3	2.630000E+1
5.260317E+1	4.023342E-5	1.307450E+6	2.116405E-3	2.640000E+1
5.280140E+1	4.080375E-5	1.294033E+6	2.154495E-3	2.650000E+1
5.300295E+1	4.139707E-5	1.280355E+6	2.194167E-3	2.660000E+1
5.320137E+1	4.199094E-5	1.266973E+6	2.233976E-3	2.670000E+1
5.340301E+1	4.260602E-5	1.253415E+6	2.275290E-3	2.680000E+1
5.360149E+1	4.322462E-5	1.240069E+6	2.316904E-3	2.690000E+1
5.380320E+1	4.386232E-5	1.226638E+6	2.359933E-3	2.700000E+1
5.400164E+1	4.450688E-5	1.213332E+6	2.403445E-3	2.710000E+1
5.420324E+1	4.517392E-5	1.199879E+6	2.448573E-3	2.720000E+1
5.440180E+1	4.584287E-5	1.186701E+6	2.493935E-3	2.730000E+1
5.460352E+1	4.653915E-5	1.173281E+6	2.541201E-3	2.740000E+1
5.480192E+1	4.723597E-5	1.160173E+6	2.588622E-3	2.750000E+1
5.500360E+1	4.795860E-5	1.146898E+6	2.637896E-3	2.760000E+1
5.520201E+1	4.868492E-5	1.133863E+6	2.687505E-3	2.770000E+1
5.540376E+1	4.943887E-5	1.120652E+6	2.739099E-3	2.780000E+1
5.560210E+1	5.019488E-5	1.107725E+6	2.790941E-3	2.790000E+1
5.580390E+1	5.097898E-5	1.094645E+6	2.844826E-3	2.800000E+1
5.600243E+1	5.176851E-5	1.081786E+6	2.899162E-3	2.810000E+1
5.620414E+1	5.259065E-5	1.068710E+6	2.955812E-3	2.820000E+1
5.640247E+1	5.341266E-5	1.055976E+6	3.012606E-3	2.830000E+1
5.660399E+1	5.426619E-5	1.043080E+6	3.071683E-3	2.840000E+1
5.680232E+1	5.512336E-5	1.030458E+6	3.131135E-3	2.850000E+1
5.700381E+1	5.601678E-5	1.017620E+6	3.193170E-3	2.860000E+1
5.720213E+1	5.691190E-5	1.005100E+6	3.255482E-3	2.870000E+1
5.740381E+1	5.784311E-5	9.924053E+5	3.320415E-3	2.880000E+1
5.760225E+1	5.878294E-5	9.799144E+5	3.386030E-3	2.890000E+1
5.780419E+1	5.975830E-5	9.672998E+5	3.454280E-3	2.900000E+1
5.800254E+1	6.073849E-5	9.549553E+5	3.522987E-3	2.910000E+1
5.820435E+1	6.176053E-5	9.424199E+5	3.594732E-3	2.920000E+1
5.840251E+1	6.278377E-5	9.302167E+5	3.666730E-3	2.930000E+1
5.860442E+1	6.384995E-5	9.178460E+5	3.741889E-3	2.940000E+1
5.880279E+1	6.491989E-5	9.057746E+5	3.817471E-3	2.950000E+1
5.900466E+1	6.603651E-5	8.935157E+5	3.896462E-3	2.960000E+1
5.920291E+1	6.716263E-5	8.814859E+5	3.976223E-3	2.970000E+1
5.940472E+1	6.832902E-5	8.693922E+5	4.059066E-3	2.980000E+1
5.960316E+1	6.950436E-5	8.575456E+5	4.142679E-3	2.990000E+1
5.980493E+1	7.073110E-5	8.455252E+5	4.230068E-3	3.000000E+1
6.000325E+1	7.196678E-5	8.337632E+5	4.318241E-3	3.010000E+1
6.020473E+1	7.324693E-5	8.219420E+5	4.409812E-3	3.020000E+1
6.040258E+1	7.455073E-5	8.102212E+5	4.503056E-3	3.030000E+1
6.060429E+1	7.614965E-5	7.958578E+5	4.614995E-3	3.040000E+1
6.080275E+1	7.739854E-5	7.855801E+5	4.706044E-3	3.050000E+1
6.100445E+1	7.936004E-5	7.687049E+5	4.841316E-3	3.060000E+1
6.119904E+1	8.073349E-5	7.580378E+5	4.940812E-3	3.070000E+1
6.140371E+1	2.144160E-4	2.863765E+5	1.316594E-2	3.090000E+1
6.160226E+1	2.917347E-4	2.111585E+5	1.797152E-2	3.100000E+1
6.180418E+1	4.280361E-4	1.443901E+5	2.645442E-2	3.120000E+1
6.200314E+1	6.010882E-4	1.031515E+5	3.726936E-2	3.130000E+1
6.220372E+1	1.249330E-3	4.978966E+4	7.771297E-2	3.140000E+1
6.240242E+1	2.109337E-3	2.958390E+4	1.316277E-1	3.150000E+1
6.260419E+1	3.366320E-3	1.859722E+4	2.107457E-1	3.160000E+1
6.280298E+1	5.040615E-3	1.245939E+4	3.165656E-1	3.170000E+1
6.300515E+1	7.526582E-3	8.371018E+3	4.742134E-1	3.180000E+1
6.320480E+1	1.000004E-2	6.320455E+3	6.320505E-1	3.190000E+1
6.324412E+1	1.000004E-2	6.324387E+3	6.324437E-1	3.200000E+1
6.327372E+1	1.000004E-2	6.327347E+3	6.327397E-1	3.210000E+1
6.329971E+1	1.000004E-2	6.329946E+3	6.329996E-1	3.220000E+1
6.332040E+1	1.000005E-2	6.332008E+3	6.332072E-1	3.230000E+1
6.333891E+1	1.000005E-2	6.333859E+3	6.333923E-1	3.240000E+1
6.335688E+1	1.000004E-2	6.335663E+3	6.335713E-1	3.250000E+1
6.337231E+1	1.000004E-2	6.337206E+3	6.337256E-1	3.260000E+1
6.338673E+1	1.000003E-2	6.338654E+3	6.338692E-1	3.270000E+1
6.340025E+1	1.000004E-2	6.340000E+3	6.340050E-1	3.280000E+1
6.341388E+1	1.000004E-2	6.341363E+3	6.341413E-1	3.290000E+1
6.342565E+1	1.000004E-2	6.342540E+3	6.342590E-1	3.300000E+1
6.343694E+1	1.000004E-2	6.343669E+3	6.343719E-1	3.310000E+1
6.344783E+1	1.000004E-2	6.344758E+3	6.344808E-1	3.320000E+1
6.345883E+1	1.000004E-2	6.345858E+3	6.345908E-1	3.330000E+1
6.346847E+1	1.000004E-2	6.346822E+3	6.346872E-1	3.340000E+1
