Voltage (V)	Current (A)	Resistance (Ohm)	Power (W)	Time(s)
2.499867E-3	2.122808E-7	1.177623E+4	5.306738E-10	0.000000E+0
5.018514E-3	4.473885E-7	1.121735E+4	2.245225E-9	1.000000E-1
1.001949E-2	9.868683E-7	1.015281E+4	9.887917E-9	2.000000E-1
1.499682E-2	1.634974E-6	9.172513E+3	2.451941E-8	4.000000E-1
2.002449E-2	2.427950E-6	8.247489E+3	4.861846E-8	6.000000E-1
2.501601E-2	3.381274E-6	7.398398E+3	8.458598E-8	6.000000E-1
3.000677E-2	4.534695E-6	6.617153E+3	1.360715E-7	7.000000E-1
3.500582E-2	5.932824E-6	5.900364E+3	2.076834E-7	8.000000E-1
4.000037E-2	7.624852E-6	5.246052E+3	3.049969E-7	9.000000E-1
4.502769E-2	9.687503E-6	4.648018E+3	4.362059E-7	1.000000E+0
5.000560E-2	1.214751E-5	4.116531E+3	6.074435E-7	1.300000E+0
5.499831E-2	1.514613E-5	3.631179E+3	8.330116E-7	1.400000E+0
5.998486E-2	1.877211E-5	3.195424E+3	1.126042E-6	1.500000E+0
6.501135E-2	2.319859E-5	2.802384E+3	1.508172E-6	1.600000E+0
7.000533E-2	2.852757E-5	2.453953E+3	1.997082E-6	1.700000E+0
7.499871E-2	3.497926E-5	2.144091E+3	2.623399E-6	1.800000E+0
7.999105E-2	4.278466E-5	1.869620E+3	3.422390E-6	1.900000E+0
8.501711E-2	5.230766E-5	1.625328E+3	4.447046E-6	2.000000E+0
9.001393E-2	6.377221E-5	1.411491E+3	5.740387E-6	2.100000E+0
9.500452E-2	7.763197E-5	1.223781E+3	7.375388E-6	2.200000E+0
9.999884E-2	9.441991E-5	1.059086E+3	9.441881E-6	2.300000E+0
1.050121E-1	1.147573E-4	9.150799E+2	1.205091E-5	2.600000E+0
1.100021E-1	1.393166E-4	7.895836E+2	1.532512E-5	2.700000E+0
1.149975E-1	1.690547E-4	6.802384E+2	1.944087E-5	2.800000E+0
1.199894E-1	2.050070E-4	5.852942E+2	2.459867E-5	2.900000E+0
1.250157E-1	2.487843E-4	5.025064E+2	3.110194E-5	3.000000E+0
1.300084E-1	3.014064E-4	4.313392E+2	3.918536E-5	3.100000E+0
1.350020E-1	3.649948E-4	3.698738E+2	4.927503E-5	3.200000E+0
1.399966E-1	4.418369E-4	3.168513E+2	6.185566E-5	3.300000E+0
1.450257E-1	5.353668E-4	2.708904E+2	7.764194E-5	3.400000E+0
1.500215E-1	6.474831E-4	2.316995E+2	9.713639E-5	3.500000E+0
1.550163E-1	7.827548E-4	1.980394E+2	1.213398E-4	3.600000E+0
1.600122E-1	9.458431E-4	1.691741E+2	1.513464E-4	3.700000E+0
1.650186E-1	1.142368E-3	1.444531E+2	1.885120E-4	4.000000E+0
1.700154E-1	1.378534E-3	1.233306E+2	2.343720E-4	4.100000E+0
1.750080E-1	1.662230E-3	1.052851E+2	2.909035E-4	4.200000E+0
1.799998E-1	2.002559E-3	8.988489E+1	3.604602E-4	4.300000E+0
1.850279E-1	2.413252E-3	7.667160E+1	4.465189E-4	4.400000E+0
1.900216E-1	2.901028E-3	6.550147E+1	5.512580E-4	4.500000E+0
1.950123E-1	3.482599E-3	5.599620E+1	6.791496E-4	4.600000E+0
2.000031E-1	4.174125E-3	4.791498E+1	8.348379E-4	4.700000E+0
2.049983E-1	4.994684E-3	4.104330E+1	1.023902E-3	4.800000E+0
2.100244E-1	5.970878E-3	3.517479E+1	1.254030E-3	4.900000E+0
2.150193E-1	7.113301E-3	3.022778E+1	1.529497E-3	5.000000E+0
2.200143E-1	8.451133E-3	2.603370E+1	1.859370E-3	5.100000E+0
2.250117E-1	1.001181E-2	2.247463E+1	2.252774E-3	5.100000E+0
2.300167E-1	1.182139E-2	1.945767E+1	2.719117E-3	5.400000E+0
2.350092E-1	1.390214E-2	1.690453E+1	3.267131E-3	5.600000E+0
2.400038E-1	1.628509E-2	1.473764E+1	3.908483E-3	5.600000E+0
2.449950E-1	1.899105E-2	1.290055E+1	4.652712E-3	5.700000E+0
2.500214E-1	2.206630E-2	1.133046E+1	5.517047E-3	5.800000E+0
2.550170E-1	2.549259E-2	1.000357E+1	6.501044E-3	5.900000E+0
2.600099E-1	2.929763E-2	8.874776E+0	7.617674E-3	6.000000E+0
2.650009E-1	3.349577E-2	7.911474E+0	8.876409E-3	6.100000E+0
2.700294E-1	3.812670E-2	7.082423E+0	1.029533E-2	6.200000E+0
2.750235E-1	4.312977E-2	6.376651E+0	1.186170E-2	6.300000E+0
2.800170E-1	4.853303E-2	5.769617E+0	1.359007E-2	6.400000E+0
2.850117E-1	5.433204E-2	5.245739E+0	1.548527E-2	6.500000E+0
2.900395E-1	6.055650E-2	4.789568E+0	1.756378E-2	6.600000E+0
2.950328E-1	6.711543E-2	4.395901E+0	1.980125E-2	6.700000E+0
3.000213E-1	7.402626E-2	4.052904E+0	2.220945E-2	6.800000E+0
3.050140E-1	8.128919E-2	3.752209E+0	2.479434E-2	6.900000E+0
3.100450E-1	8.894064E-2	3.485977E+0	2.757560E-2	7.000000E+0
3.150374E-1	9.684685E-2	3.252944E+0	3.051038E-2	7.100000E+0
3.200001E-1	1.049866E-1	3.048009E+0	3.359572E-2	7.300000E+0
3.249944E-1	1.134535E-1	2.864560E+0	3.687175E-2	7.400000E+0
3.300185E-1	1.222511E-1	2.699514E+0	4.034512E-2	7.500000E+0
3.350053E-1	1.312186E-1	2.553032E+0	4.395893E-2	7.600000E+0
3.399998E-1	1.404477E-1	2.420829E+0	4.775219E-2	7.700000E+0
3.449913E-1	1.498780E-1	2.301814E+0	5.170661E-2	7.800000E+0
3.500170E-1	1.595850E-1	2.193295E+0	5.585746E-2	7.900000E+0
3.550084E-1	1.694247E-1	2.095376E+0	6.014719E-2	8.000000E+0
3.600015E-1	1.794527E-1	2.006108E+0	6.460324E-2	8.100000E+0
3.649909E-1	1.896448E-1	1.924603E+0	6.921863E-2	8.200000E+0
3.700086E-1	2.000615E-1	1.849474E+0	7.402448E-2	8.300000E+0
3.699701E-1	2.000886E-1	1.849031E+0	7.402680E-2	8.400000E+0
3.699405E-1	2.000886E-1	1.848883E+0	7.402088E-2	8.500000E+0
3.699116E-1	2.000898E-1	1.848728E+0	7.401554E-2	8.600000E+0
3.698874E-1	2.000869E-1	1.848634E+0	7.400962E-2	8.700000E+0
3.698674E-1	2.000899E-1	1.848506E+0	7.400673E-2	8.800000E+0
3.698434E-1	2.000877E-1	1.848406E+0	7.400112E-2	8.900000E+0
3.698235E-1	2.000886E-1	1.848299E+0	7.399747E-2	9.000000E+0
3.698071E-1	2.000894E-1	1.848209E+0	7.399448E-2	9.100000E+0
3.697912E-1	2.000878E-1	1.848145E+0	7.399071E-2	9.200000E+0
3.697746E-1	2.000877E-1	1.848063E+0	7.398735E-2	9.300000E+0
3.697601E-1	2.000924E-1	1.847947E+0	7.398619E-2	9.400000E+0
3.697437E-1	2.000898E-1	1.847889E+0	7.398194E-2	9.500000E+0
3.697306E-1	2.000890E-1	1.847831E+0	7.397903E-2	9.600000E+0
3.697165E-1	2.000898E-1	1.847753E+0	7.397650E-2	9.700000E+0
3.697042E-1	2.000889E-1	1.847700E+0	7.397371E-2	9.800000E+0
3.696930E-1	2.000885E-1	1.847647E+0	7.397132E-2	9.900000E+0
3.696840E-1	2.000942E-1	1.847550E+0	7.397162E-2	1.000000E+1
3.696694E-1	2.000911E-1	1.847505E+0	7.396756E-2	1.010000E+1
3.696589E-1	2.000924E-1	1.847441E+0	7.396594E-2	1.020000E+1
3.696479E-1	2.000928E-1	1.847382E+0	7.396388E-2	1.030000E+1
3.696378E-1	2.000928E-1	1.847332E+0	7.396186E-2	1.040000E+1
3.696272E-1	2.000966E-1	1.847244E+0	7.396115E-2	1.050000E+1
3.696170E-1	2.000946E-1	1.847211E+0	7.395837E-2	1.060000E+1
3.696068E-1	2.000910E-1	1.847194E+0	7.395499E-2	1.070000E+1
3.695980E-1	2.000932E-1	1.847129E+0	7.395405E-2	1.080000E+1
3.695873E-1	2.000915E-1	1.847091E+0	7.395128E-2	1.090000E+1
3.695801E-1	2.000983E-1	1.846993E+0	7.395235E-2	1.100000E+1
3.695700E-1	2.000945E-1	1.846977E+0	7.394892E-2	1.110000E+1
3.695622E-1	2.000945E-1	1.846938E+0	7.394736E-2	1.120000E+1
3.695528E-1	2.000946E-1	1.846890E+0	7.394552E-2	1.130000E+1
3.695431E-1	2.000940E-1	1.846847E+0	7.394336E-2	1.140000E+1
3.695357E-1	2.000966E-1	1.846787E+0	7.394284E-2	1.150000E+1
3.695258E-1	2.000983E-1	1.846721E+0	7.394148E-2	1.160000E+1
3.695171E-1	2.000979E-1	1.846682E+0	7.393960E-2	1.170000E+1
3.695091E-1	2.000931E-1	1.846686E+0	7.393622E-2	1.180000E+1
3.695046E-1	2.000979E-1	1.846619E+0	7.393709E-2	1.190000E+1
3.694960E-1	2.000954E-1	1.846599E+0	7.393445E-2	1.200000E+1
3.694863E-1	2.000936E-1	1.846567E+0	7.393184E-2	1.210000E+1
3.694794E-1	2.000945E-1	1.846525E+0	7.393080E-2	1.220000E+1
3.694712E-1	2.000966E-1	1.846464E+0	7.392993E-2	1.230000E+1
3.694651E-1	2.000975E-1	1.846425E+0	7.392904E-2	1.240000E+1
3.694569E-1	2.000979E-1	1.846381E+0	7.392755E-2	1.250000E+1
3.694516E-1	2.000970E-1	1.846363E+0	7.392616E-2	1.260000E+1
3.694444E-1	2.001005E-1	1.846294E+0	7.392601E-2	1.270000E+1
3.694362E-1	2.000961E-1	1.846294E+0	7.392274E-2	1.280000E+1
3.694293E-1	2.000996E-1	1.846227E+0	7.392266E-2	1.290000E+1
3.694239E-1	2.000974E-1	1.846220E+0	7.392076E-2	1.300000E+1
3.694185E-1	2.001000E-1	1.846169E+0	7.392064E-2	1.310000E+1
3.694111E-1	2.000983E-1	1.846148E+0	7.391853E-2	1.320000E+1
3.694044E-1	2.000979E-1	1.846118E+0	7.391704E-2	1.330000E+1
3.693999E-1	2.000974E-1	1.846100E+0	7.391596E-2	1.340000E+1
3.693921E-1	2.001000E-1	1.846037E+0	7.391536E-2	1.350000E+1
3.693879E-1	2.001025E-1	1.845993E+0	7.391544E-2	1.360000E+1
3.693819E-1	2.001042E-1	1.845948E+0	7.391487E-2	1.370000E+1
3.693759E-1	2.001025E-1	1.845933E+0	7.391304E-2	1.380000E+1
3.693683E-1	2.001017E-1	1.845903E+0	7.391122E-2	1.390000E+1
3.693618E-1	2.001038E-1	1.845851E+0	7.391070E-2	1.400000E+1
3.693566E-1	2.001000E-1	1.845860E+0	7.390826E-2	1.410000E+1
3.693518E-1	2.001025E-1	1.845813E+0	7.390822E-2	1.420000E+1
3.693474E-1	2.000983E-1	1.845830E+0	7.390579E-2	1.430000E+1
3.693407E-1	2.001009E-1	1.845772E+0	7.390541E-2	1.440000E+1
3.693351E-1	2.001043E-1	1.845713E+0	7.390554E-2	1.450000E+1
3.693305E-1	2.001025E-1	1.845707E+0	7.390396E-2	1.460000E+1
3.693230E-1	2.001012E-1	1.845681E+0	7.390198E-2	1.470000E+1
3.693212E-1	2.001081E-1	1.845608E+0	7.390416E-2	1.480000E+1
3.693134E-1	2.001051E-1	1.845597E+0	7.390149E-2	1.490000E+1
3.693080E-1	2.001026E-1	1.845593E+0	7.389949E-2	1.500000E+1
3.693028E-1	2.001047E-1	1.845548E+0	7.389923E-2	1.510000E+1
3.692950E-1	2.001072E-1	1.845486E+0	7.389859E-2	1.520000E+1
3.692886E-1	2.001034E-1	1.845489E+0	7.389590E-2	1.530000E+1
3.692830E-1	2.001047E-1	1.845449E+0	7.389526E-2	1.540000E+1
3.692767E-1	2.001068E-1	1.845398E+0	7.389478E-2	1.550000E+1
3.692722E-1	2.001084E-1	1.845361E+0	7.389447E-2	1.560000E+1
3.692669E-1	2.001051E-1	1.845365E+0	7.389219E-2	1.570000E+1
3.692584E-1	2.001076E-1	1.845299E+0	7.389141E-2	1.580000E+1
3.692547E-1	2.001051E-1	1.845304E+0	7.388975E-2	1.590000E+1
3.692498E-1	2.001063E-1	1.845268E+0	7.388921E-2	1.600000E+1
3.692449E-1	2.001068E-1	1.845239E+0	7.388842E-2	1.610000E+1
3.692389E-1	2.001084E-1	1.845194E+0	7.388781E-2	1.620000E+1
3.692323E-1	2.001098E-1	1.845149E+0	7.388700E-2	1.630000E+1
3.692264E-1	2.001063E-1	1.845151E+0	7.388453E-2	1.640000E+1
3.692213E-1	2.001093E-1	1.845098E+0	7.388462E-2	1.650000E+1
3.692181E-1	2.001097E-1	1.845078E+0	7.388412E-2	1.660000E+1
3.692108E-1	2.001067E-1	1.845070E+0	7.388155E-2	1.670000E+1
3.692077E-1	2.001118E-1	1.845007E+0	7.388282E-2	1.680000E+1
3.694458E-1	2.001075E-1	1.846237E+0	7.392888E-2	1.690000E+1
3.697207E-1	2.001110E-1	1.847578E+0	7.398518E-2	1.700000E+1
3.696787E-1	2.001088E-1	1.847389E+0	7.397596E-2	1.710000E+1
3.696605E-1	2.001118E-1	1.847270E+0	7.397343E-2	1.720000E+1
3.696464E-1	2.001126E-1	1.847192E+0	7.397090E-2	1.730000E+1
3.696349E-1	2.001131E-1	1.847130E+0	7.396879E-2	1.740000E+1
3.696274E-1	2.001153E-1	1.847072E+0	7.396810E-2	1.750000E+1
3.696161E-1	2.001161E-1	1.847008E+0	7.396613E-2	1.760000E+1
3.696097E-1	2.001148E-1	1.846988E+0	7.396437E-2	1.770000E+1
3.695996E-1	2.001140E-1	1.846945E+0	7.396205E-2	1.780000E+1
3.695924E-1	2.001140E-1	1.846909E+0	7.396061E-2	1.790000E+1
3.695843E-1	2.001117E-1	1.846890E+0	7.395814E-2	1.800000E+1
3.695791E-1	2.001191E-1	1.846796E+0	7.395984E-2	1.810000E+1
3.695720E-1	2.001173E-1	1.846777E+0	7.395775E-2	1.820000E+1
3.695658E-1	2.001161E-1	1.846757E+0	7.395607E-2	1.830000E+1
3.695579E-1	2.001194E-1	1.846687E+0	7.395571E-2	1.840000E+1
3.695520E-1	2.001203E-1	1.846649E+0	7.395486E-2	1.850000E+1
3.695461E-1	2.001186E-1	1.846635E+0	7.395305E-2	1.860000E+1
3.695391E-1	2.001203E-1	1.846585E+0	7.395228E-2	1.870000E+1
3.695337E-1	2.001203E-1	1.846558E+0	7.395119E-2	1.880000E+1
3.695286E-1	2.001169E-1	1.846564E+0	7.394892E-2	1.890000E+1
3.695558E-1	2.001219E-1	1.846653E+0	7.395621E-2	1.900000E+1
3.695477E-1	2.001199E-1	1.846631E+0	7.395385E-2	1.910000E+1
3.695398E-1	2.001220E-1	1.846573E+0	7.395304E-2	1.920000E+1
3.695325E-1	2.001194E-1	1.846560E+0	7.395062E-2	1.930000E+1
3.695281E-1	2.001207E-1	1.846526E+0	7.395022E-2	1.940000E+1
3.695222E-1	2.001211E-1	1.846493E+0	7.394919E-2	1.950000E+1
3.695163E-1	2.001202E-1	1.846472E+0	7.394768E-2	1.960000E+1
3.695135E-1	2.001220E-1	1.846441E+0	7.394778E-2	1.970000E+1
3.695059E-1	2.001219E-1	1.846404E+0	7.394622E-2	1.980000E+1
3.695009E-1	2.001249E-1	1.846351E+0	7.394633E-2	1.990000E+1
3.694943E-1	2.001249E-1	1.846318E+0	7.394501E-2	2.000000E+1
3.694911E-1	2.001237E-1	1.846314E+0	7.394393E-2	2.010000E+1
3.694841E-1	2.001258E-1	1.846259E+0	7.394330E-2	2.020000E+1
3.694769E-1	2.001258E-1	1.846223E+0	7.394186E-2	2.030000E+1
3.694730E-1	2.001238E-1	1.846222E+0	7.394034E-2	2.040000E+1
3.694685E-1	2.001254E-1	1.846185E+0	7.394003E-2	2.050000E+1
3.694633E-1	2.001262E-1	1.846152E+0	7.393929E-2	2.060000E+1
3.694583E-1	2.001237E-1	1.846150E+0	7.393736E-2	2.070000E+1
3.694531E-1	2.001275E-1	1.846089E+0	7.393773E-2	2.080000E+1
3.694479E-1	2.001267E-1	1.846070E+0	7.393639E-2	2.090000E+1
3.694441E-1	2.001266E-1	1.846052E+0	7.393559E-2	2.100000E+1
3.694390E-1	2.001274E-1	1.846019E+0	7.393487E-2	2.110000E+1
3.694342E-1	2.001266E-1	1.846002E+0	7.393361E-2	2.120000E+1
3.694301E-1	2.001274E-1	1.845975E+0	7.393309E-2	2.130000E+1
3.694244E-1	2.001253E-1	1.845966E+0	7.393117E-2	2.140000E+1
3.694208E-1	2.001287E-1	1.845916E+0	7.393170E-2	2.150000E+1
3.694163E-1	2.001296E-1	1.845885E+0	7.393114E-2	2.160000E+1
3.694125E-1	2.001292E-1	1.845870E+0	7.393023E-2	2.170000E+1
3.694069E-1	2.001296E-1	1.845838E+0	7.392926E-2	2.180000E+1
3.694026E-1	2.001313E-1	1.845801E+0	7.392902E-2	2.190000E+1
3.693991E-1	2.001368E-1	1.845733E+0	7.393035E-2	2.200000E+1
3.693927E-1	2.001342E-1	1.845725E+0	7.392811E-2	2.210000E+1
3.693871E-1	2.001337E-1	1.845702E+0	7.392681E-2	2.220000E+1
3.693840E-1	2.001342E-1	1.845682E+0	7.392637E-2	2.230000E+1
3.693790E-1	2.001334E-1	1.845664E+0	7.392508E-2	2.240000E+1
3.693722E-1	2.001321E-1	1.845642E+0	7.392323E-2	2.250000E+1
3.693674E-1	2.001339E-1	1.845601E+0	7.392294E-2	2.260000E+1
3.693631E-1	2.001338E-1	1.845581E+0	7.392204E-2	2.270000E+1
3.693581E-1	2.001330E-1	1.845563E+0	7.392074E-2	2.280000E+1
3.693543E-1	2.001326E-1	1.845548E+0	7.391984E-2	2.290000E+1
3.693473E-1	2.001368E-1	1.845474E+0	7.391999E-2	2.300000E+1
3.693407E-1	2.001351E-1	1.845457E+0	7.391804E-2	2.310000E+1
3.693385E-1	2.001372E-1	1.845427E+0	7.391837E-2	2.320000E+1
3.693334E-1	2.001377E-1	1.845396E+0	7.391754E-2	2.330000E+1
3.693288E-1	2.001345E-1	1.845403E+0	7.391543E-2	2.340000E+1
3.693238E-1	2.001355E-1	1.845369E+0	7.391480E-2	2.350000E+1
3.693176E-1	2.001355E-1	1.845338E+0	7.391356E-2	2.360000E+1
3.693161E-1	2.001402E-1	1.845287E+0	7.391500E-2	2.370000E+1
3.693115E-1	2.001372E-1	1.845292E+0	7.391297E-2	2.380000E+1
3.693091E-1	2.001364E-1	1.845287E+0	7.391219E-2	2.390000E+1
3.693046E-1	2.001376E-1	1.845253E+0	7.391174E-2	2.400000E+1
3.693011E-1	2.001393E-1	1.845220E+0	7.391166E-2	2.410000E+1
3.692995E-1	2.001398E-1	1.845208E+0	7.391153E-2	2.420000E+1
3.692942E-1	2.001411E-1	1.845169E+0	7.391095E-2	2.430000E+1
3.692888E-1	2.001422E-1	1.845132E+0	7.391027E-2	2.440000E+1
3.692865E-1	2.001411E-1	1.845131E+0	7.390941E-2	2.450000E+1
3.692821E-1	2.001418E-1	1.845102E+0	7.390878E-2	2.460000E+1
3.692781E-1	2.001406E-1	1.845093E+0	7.390754E-2	2.470000E+1
3.692755E-1	2.001444E-1	1.845045E+0	7.390842E-2	2.480000E+1
3.692704E-1	2.001456E-1	1.845009E+0	7.390785E-2	2.490000E+1
3.692672E-1	2.001436E-1	1.845011E+0	7.390647E-2	2.500000E+1
3.692640E-1	2.001435E-1	1.844996E+0	7.390579E-2	2.510000E+1
3.692600E-1	2.001427E-1	1.844984E+0	7.390469E-2	2.520000E+1
3.692572E-1	2.001436E-1	1.844961E+0	7.390447E-2	2.530000E+1
3.692527E-1	2.001449E-1	1.844927E+0	7.390404E-2	2.540000E+1
3.692468E-1	2.001440E-1	1.844906E+0	7.390253E-2	2.550000E+1
3.692438E-1	2.001427E-1	1.844903E+0	7.390145E-2	2.560000E+1
3.692405E-1	2.001418E-1	1.844894E+0	7.390046E-2	2.570000E+1
3.692372E-1	2.001422E-1	1.844874E+0	7.389995E-2	2.580000E+1
3.692345E-1	2.001415E-1	1.844867E+0	7.389915E-2	2.590000E+1
3.692285E-1	2.001448E-1	1.844807E+0	7.389916E-2	2.600000E+1
3.692244E-1	2.001461E-1	1.844774E+0	7.389882E-2	2.610000E+1
3.692202E-1	2.001461E-1	1.844753E+0	7.389798E-2	2.620000E+1
3.692157E-1	2.001457E-1	1.844735E+0	7.389693E-2	2.630000E+1
3.692120E-1	2.001461E-1	1.844712E+0	7.389634E-2	2.640000E+1
3.692054E-1	2.001439E-1	1.844700E+0	7.389421E-2	2.650000E+1
3.692033E-1	2.001449E-1	1.844680E+0	7.389416E-2	2.660000E+1
3.691987E-1	2.001487E-1	1.844622E+0	7.389464E-2	2.670000E+1
3.691952E-1	2.001452E-1	1.844637E+0	7.389265E-2	2.680000E+1
3.691906E-1	2.001461E-1	1.844606E+0	7.389206E-2	2.690000E+1
3.691858E-1	2.001457E-1	1.844585E+0	7.389095E-2	2.700000E+1
3.691833E-1	2.001499E-1	1.844534E+0	7.389200E-2	2.710000E+1
3.691785E-1	2.001508E-1	1.844502E+0	7.389137E-2	2.720000E+1
3.691748E-1	2.001503E-1	1.844488E+0	7.389045E-2	2.730000E+1
3.691707E-1	2.001486E-1	1.844483E+0	7.388900E-2	2.740000E+1
3.691652E-1	2.001482E-1	1.844459E+0	7.388775E-2	2.750000E+1
3.691616E-1	2.001464E-1	1.844458E+0	7.388637E-2	2.760000E+1
3.691576E-1	2.001503E-1	1.844402E+0	7.388700E-2	2.770000E+1
3.691534E-1	2.001455E-1	1.844425E+0	7.388439E-2	2.780000E+1
3.691506E-1	2.001512E-1	1.844359E+0	7.388594E-2	2.790000E+1
3.691474E-1	2.001482E-1	1.844370E+0	7.388419E-2	2.800000E+1
3.691434E-1	2.001499E-1	1.844335E+0	7.388401E-2	2.810000E+1
3.691397E-1	2.001538E-1	1.844280E+0	7.388471E-2	2.820000E+1
3.691353E-1	2.001524E-1	1.844271E+0	7.388332E-2	2.830000E+1
3.691311E-1	2.001541E-1	1.844235E+0	7.388310E-2	2.840000E+1
3.691301E-1	2.001536E-1	1.844234E+0	7.388272E-2	2.850000E+1
3.691267E-1	2.001575E-1	1.844181E+0	7.388348E-2	2.860000E+1
3.691220E-1	2.001579E-1	1.844154E+0	7.388268E-2	2.860000E+1
3.691187E-1	2.001570E-1	1.844146E+0	7.388169E-2	2.870000E+1
3.691146E-1	2.001567E-1	1.844128E+0	7.388076E-2	2.890000E+1
3.691112E-1	2.001574E-1	1.844105E+0	7.388034E-2	2.900000E+1
3.691051E-1	2.001583E-1	1.844066E+0	7.387945E-2	2.910000E+1
3.691025E-1	2.001592E-1	1.844045E+0	7.387926E-2	2.920000E+1
3.690972E-1	2.001587E-1	1.844023E+0	7.387802E-2	2.920000E+1
3.690959E-1	2.001612E-1	1.843993E+0	7.387868E-2	2.930000E+1
3.690934E-1	2.001600E-1	1.843992E+0	7.387773E-2	2.940000E+1
3.690883E-1	2.001626E-1	1.843942E+0	7.387767E-2	2.960000E+1
3.690850E-1	2.001595E-1	1.843954E+0	7.387587E-2	2.960000E+1
3.690798E-1	2.001596E-1	1.843928E+0	7.387487E-2	2.970000E+1
3.690757E-1	2.001629E-1	1.843877E+0	7.387526E-2	2.980000E+1
3.690741E-1	2.001642E-1	1.843857E+0	7.387542E-2	2.990000E+1
3.690696E-1	2.001645E-1	1.843831E+0	7.387463E-2	3.000000E+1
3.690658E-1	2.001613E-1	1.843842E+0	7.387269E-2	3.020000E+1
3.690602E-1	2.001617E-1	1.843810E+0	7.387172E-2	3.020000E+1
3.690569E-1	2.001626E-1	1.843786E+0	7.387139E-2	3.030000E+1
3.690517E-1	2.001629E-1	1.843757E+0	7.387046E-2	3.040000E+1
3.690480E-1	2.001626E-1	1.843741E+0	7.386961E-2	3.060000E+1
3.690446E-1	2.001668E-1	1.843685E+0	7.387048E-2	3.070000E+1
3.690426E-1	2.001643E-1	1.843698E+0	7.386915E-2	3.070000E+1
3.690370E-1	2.001633E-1	1.843680E+0	7.386766E-2	3.080000E+1
3.690358E-1	2.001672E-1	1.843638E+0	7.386886E-2	3.090000E+1
3.690327E-1	2.001624E-1	1.843666E+0	7.386647E-2	3.100000E+1
3.690297E-1	2.001659E-1	1.843619E+0	7.386716E-2	3.110000E+1
3.690266E-1	2.001633E-1	1.843628E+0	7.386558E-2	3.120000E+1
3.690214E-1	2.001677E-1	1.843561E+0	7.386616E-2	3.130000E+1
3.690180E-1	2.001663E-1	1.843557E+0	7.386497E-2	3.140000E+1
3.690138E-1	2.001667E-1	1.843532E+0	7.386427E-2	3.150000E+1
3.690145E-1	2.001668E-1	1.843535E+0	7.386445E-2	3.160000E+1
3.690116E-1	2.001698E-1	1.843493E+0	7.386498E-2	3.170000E+1
3.690062E-1	2.001711E-1	1.843454E+0	7.386438E-2	3.180000E+1
3.690042E-1	2.001697E-1	1.843457E+0	7.386346E-2	3.190000E+1
3.690021E-1	2.001689E-1	1.843454E+0	7.386274E-2	3.200000E+1
3.689981E-1	2.001710E-1	1.843414E+0	7.386272E-2	3.210000E+1
3.689976E-1	2.001705E-1	1.843416E+0	7.386243E-2	3.220000E+1
3.689941E-1	2.001710E-1	1.843394E+0	7.386192E-2	3.230000E+1
3.689880E-1	2.001679E-1	1.843392E+0	7.385955E-2	3.240000E+1
3.689876E-1	2.001705E-1	1.843367E+0	7.386043E-2	3.250000E+1
3.689849E-1	2.001714E-1	1.843345E+0	7.386022E-2	3.260000E+1
3.689808E-1	2.001753E-1	1.843288E+0	7.386084E-2	3.270000E+1
3.689779E-1	2.001723E-1	1.843301E+0	7.385915E-2	3.280000E+1
3.689737E-1	2.001701E-1	1.843301E+0	7.385750E-2	3.290000E+1
3.689727E-1	2.001740E-1	1.843260E+0	7.385874E-2	3.300000E+1
3.689707E-1	2.001736E-1	1.843254E+0	7.385819E-2	3.310000E+1
3.689667E-1	2.001757E-1	1.843214E+0	7.385817E-2	3.320000E+1
3.689638E-1	2.001731E-1	1.843224E+0	7.385663E-2	3.330000E+1
3.689599E-1	2.001705E-1	1.843228E+0	7.385489E-2	3.340000E+1
3.689590E-1	2.001739E-1	1.843192E+0	7.385596E-2	3.350000E+1
3.689535E-1	2.001740E-1	1.843164E+0	7.385490E-2	3.360000E+1
3.689498E-1	2.001739E-1	1.843146E+0	7.385412E-2	3.370000E+1
3.689476E-1	2.001744E-1	1.843131E+0	7.385386E-2	3.380000E+1
3.689442E-1	2.001747E-1	1.843111E+0	7.385329E-2	3.390000E+1
